# This data was downloaded from https://sharc.materialsmodeling.org/alloy_dielectric_functions
# If you use this data in your research, please cite J. M. Rahm, C. Tiburski, T. P. Rossi, F. A. A. Nugroho, S. Nilsson, C. Langhammer, and P. Erhart. A Library of Late Transition Metal Alloy Dielectric Functions for Nanophotonic Applications. Advanced Functional Materials, 2002122 (2020). doi: 10.1002/adfm.202002122
# Col 1: Wavelength (nm)
# Col 2: Real refractive index (n)
# Col 3: Imag refractive index (k)
       103.62431266         0.93056665         0.79380740
       104.59903103         0.91903229         0.80292549
       105.58608811         0.90862089         0.81362327
       106.58571860         0.89968112         0.82532286
       107.59816572         0.89132668         0.83754191
       108.62367601         0.88541498         0.85042948
       109.66250398         0.87930769         0.86117130
       110.71491255         0.87089542         0.87225789
       111.78116834         0.86345563         0.88593105
       112.86154672         0.85795975         0.89906671
       113.95632907         0.85330210         0.90758513
       115.06580821         0.83267929         0.91350380
       116.19027923         0.81040734         0.93611177
       117.33004919         0.79428563         0.96765757
       118.48543323         0.78690900         1.00320132
       119.65675252         0.78621297         1.03766229
       120.84434018         0.78847607         1.07053408
       122.04853825         0.79490564         1.10310062
       123.26969679         0.80428148         1.13332070
       124.50817647         0.81480055         1.16160206
       125.76434909         0.82632004         1.18937446
       127.03859530         0.84086035         1.21634170
       128.33130887         0.85520562         1.24117197
       129.64289455         0.87164965         1.26600522
       130.97376839         0.88812993         1.28926090
       132.32435958         0.90480516         1.31442503
       133.69510808         0.93053143         1.34005113
       135.08646925         0.95781340         1.35658365
       136.49891161         0.97923627         1.36930171
       137.93291730         1.00105196         1.38479126
       139.38898562         1.02603911         1.39840103
       140.86762908         1.04892609         1.40749492
       142.36937538         1.06663427         1.41824944
       143.89477129         1.09131156         1.43409885
       145.44438011         1.12033145         1.44457040
       147.01878231         1.15054963         1.44984263
       148.61857968         1.18387568         1.44629355
       150.24438728         1.19815665         1.43218960
       151.89685027         1.20282537         1.43301388
       153.57662492         1.21944081         1.44454092
       155.28439584         1.23780235         1.45121469
       157.02086967         1.26373797         1.45948942
       158.78677388         1.29677038         1.45749917
       160.58286575         1.31958421         1.44218518
       162.40992551         1.33134155         1.42933765
       164.26875923         1.34163490         1.42376350
       166.16020212         1.35533016         1.42078392
       168.08512438         1.37300004         1.41594686
       170.04441921         1.39367987         1.40470619
       172.03901748         1.40859291         1.38277876
       174.06988016         1.40191676         1.36388886
       176.13800683         1.42717341         1.35915674
       178.24443261         1.42239682         1.31189375
       180.39023234         1.39022116         1.28911694
       182.57651443         1.36231312         1.29230044
       184.80444393         1.34746522         1.30304080
       187.07521536         1.33888494         1.31140500
       189.39008179         1.33218516         1.31828161
       191.75033795         1.32577049         1.32477568
       194.15733076         1.32088207         1.33145448
       196.61246205         1.31539855         1.33663063
       199.11719457         1.30933536         1.34201665
       201.67304227         1.30263478         1.34704594
       204.28158915         1.29419695         1.35162353
       206.94447964         1.28286744         1.35699111
       209.66343192         1.27018560         1.36457380
       212.44023136         1.25499702         1.37370482
       215.27675226         1.23800177         1.38655165
       218.17493296         1.22037864         1.40360188
       221.13680945         1.20389164         1.42478384
       224.16450564         1.18840106         1.44901983
       227.26024220         1.17408816         1.47709431
       230.42633356         1.16315154         1.50920158
       233.66521037         1.15595952         1.54405900
       236.97941340         1.15570236         1.58026518
       240.37159049         1.15954791         1.61311989
       243.84454015         1.16470176         1.64297674
       247.40117343         1.16951973         1.67111157
       251.04454928         1.17466198         1.69873072
       254.77788941         1.17940666         1.72554736
       258.60456257         1.18338402         1.75272880
       262.52811473         1.18784677         1.78081488
       266.55226964         1.19195599         1.80942789
       270.68094583         1.19634501         1.84023930
       274.91827567         1.20446618         1.87228448
       279.26859514         1.21255210         1.90321735
       283.73649494         1.22347952         1.93516414
       288.32679961         1.23544235         1.96533687
       293.04461672         1.24810799         1.99447701
       297.89532955         1.25954228         2.02289052
       302.88463782         1.27104206         2.05269384
       308.01855850         1.28341441         2.08373342
       313.30347154         1.29795244         2.11572313
       318.74615608         1.31417653         2.14800488
       324.35376311         1.33391746         2.18055984
       330.13391032         1.35628825         2.21203027
       336.09468495         1.38383773         2.24220957
       342.24469915         1.41740629         2.26560784
       348.59309438         1.44785239         2.27781335
       355.14963272         1.46325355         2.29191223
       361.92472980         1.49371159         2.32184655
       368.92948847         1.55643672         2.33102805
       376.17579017         1.59230005         2.29885325
       383.67634089         1.60782264         2.26731794
       391.44478075         1.60848699         2.23512700
       399.49569485         1.60007273         2.20312958
       407.84480238         1.57528157         2.16752768
       416.50897218         1.53227265         2.13711838
       425.50637250         1.47595664         2.11677127
       434.85661389         1.40858228         2.10689939
       444.58086370         1.33341050         2.10893840
       454.70202000         1.25488184         2.12031107
       465.24489222         1.16976142         2.13543681
       476.23640484         1.07141507         2.15443302
       487.70580858         0.95309839         2.18280508
       499.68495685         0.81170263         2.23107099
       512.20860189         0.64915227         2.31434923
       525.31475448         0.48243033         2.44639190
       539.04500530         0.33455304         2.62528969
       553.44502950         0.22050648         2.83616999
       568.56507529         0.14362432         3.06050845
       584.46046835         0.09602334         3.28506182
       601.19247176         0.06847906         3.50473211
       618.82892166         0.05327959         3.71900835
       637.44516438         0.04506901         3.92987706
       657.12519427         0.04083359         4.14017220
       677.96289496         0.03923082         4.35228465
       700.06345981         0.03913005         4.56823990
       723.54531497         0.03992727         4.79009707
       748.54213407         0.04133597         5.01976063
       775.20537276         0.04321812         5.25904675
       803.70753453         0.04551508         5.50977210
       834.24551314         0.04821435         5.77382640
       867.04553926         0.05133402         6.05323671
       902.36866297         0.05491177         6.35023209
       940.51764951         0.05900354         6.66731335
       981.84573460         0.06368387         7.00732950
      1026.76751361         0.06904793         7.37356879
      1075.77314780         0.07521580         7.76987064
      1129.44599535         0.08233885         8.20076620
      1188.48608987         0.09060888         8.67165857
      1253.74084564         0.10027074         9.18905831
      1326.24628216         0.11164030         9.76089588
      1407.28163555         0.12513012        10.39694321
      1498.44661382         0.14128674        11.10939235
      1601.76681892         0.16084595        11.91366455
      1719.84699734         0.18481689        12.82956514
      1856.09341052         0.21461293        13.88297017
      2015.04749698         0.25226227        15.10835461
      2202.90212485         0.30075827        16.55269660
      2428.32825702         0.36466684        18.28171885
      2703.84874313         0.45123092        20.39027957
      3048.24886518         0.57249761        23.02053088
      3491.04938550         0.74971129        26.39557668
      4081.45112761         1.02321595        30.88660490
      4908.01252019         1.47743864        37.15997638
      6147.85390243         2.31426015        46.54253169
      8214.25779361         4.12097635        62.10455853
     12347.06854193         9.25591651        92.88002503
     24745.46840759        36.09889861       180.83712833
